"Plot13"
"Time (sec)","Angular Velocity2 (deg/sec)"
0,0
0.01,0.0525398448125471
0.02,0.109562207645756
0.03,0.175525575800611
0.04,0.254903038479954
0.05,0.352171488954124
0.06,0.471807890622049
0.07,0.618292082047686
0.08,0.796107466195835
0.09,1.00974170624952
0.1,1.2636875393489
0.11,1.56244366468664
0.12,1.91051576314732
0.13,2.3124176681651
0.14,2.77267274152812
0.15,3.29581545368986
0.16,3.88639330339933
0.17,4.54896906961579
0.18,5.28812346390946
0.19,6.10845826469198
0.2,7.01460023020096
0.21,8.01120552830672
0.22,9.10296490665777
0.23,10.2946100815244
0.24,11.590921087792
0.25,12.9967349195372
0.26,14.5169556410846
0.27,16.1565661631941
0.28,17.9206419071959
0.29,19.8143666024484
0.3,21.8430504755185
0.31,24.0121511095275
0.32,26.327297136565
0.33,28.7943169438649
0.34,31.4192645430579
0.35,34.2084596807195
0.36,37.1685238234462
0.37,40.3064230943717
0.38,43.6295158135173
0.39,47.1456042274709
0.4,50.8629903389744
0.41,54.7905353252076
0.42,58.9377213850606
0.43,63.3147143180691
0.44,67.9324239806429
0.45,72.8025584295547
0.46,77.9376654253874
0.47,83.35115209974
0.48,89.0572694517811
0.49,95.0710425728214
0.5,101.408119447011
0.51,108.084500021755
0.52,115.116092008259
0.53,122.518019341159
0.54,130.303582323639
0.55,138.482733547341
0.56,147.059896970525
0.57,156.030904570502
0.58,165.378803374956
0.59,175.068267655561
0.6,185.038424625532
0.61,195.194108305947
0.62,205.396005759799
0.63,215.450955856659
0.64,225.104841316394
0.65,234.04189310898
0.66,241.89517861248
0.67,248.272424397028
0.68,252.797880545203
0.69,255.164516780103
0.7,255.183802256632
0.71,252.817272559529
0.72,248.178686492331
0.73,241.506501039969
0.74,233.117315954705
0.75,223.355617067006
0.76,212.552364202931
0.77,200.998304034287
0.78,188.931753327797
0.79,176.537226249623
0.8,163.950554073342
0.81,151.266922879325
0.820000000000001,138.549473659965
0.830000000000001,125.837192495144
0.840000000000001,113.151552437819
0.850000000000001,100.501818263475
0.860000000000001,87.8891300388342
0.870000000000001,75.3095656299461
0.880000000000001,62.7563905821167
0.890000000000001,50.2216810549376
0.900000000000001,37.6974720161651
0.910000000000001,25.1765494710755
0.920000000000001,12.6529765544492
0.930000000000001,0.122420032451989
0.940000000000001,-12.4176749634041
0.950000000000001,-24.9680256080699
0.960000000000001,-37.5275439769778
0.970000000000001,-50.0934423354884
0.980000000000001,-62.6613981517243
0.990000000000001,-75.2257690369257
1,-87.7798498250808
1.01,-100.316165675383
1.02,-112.826795810189
1.03,-125.303723102173
1.04,-137.739204935904
1.05,-150.126160872117
1.06,-162.458572628899
1.07,-174.731891764508
1.08,-186.943450253812
1.09,-199.092868767058
1.1,-211.182456855731
1.11,-223.217598197006
1.12,-235.207112306583
1.13,-247.163581255198
1.14,-259.103625290215
1.15,-271.048103919613
1.16,-283.022207571878
1.17,-295.055387392185
1.18,-307.181044208751
1.19,-319.435858260084
1.2,-331.858583979174
1.21,-344.488050044622
1.22,-357.360000631971
1.23,-370.502255104984
1.24,-383.927513543205
1.25,-397.62297886232
1.26,-411.535951346293
1.27,-425.554882536657
1.28,-439.486452619753
1.29,-453.031600466411
1.3,-465.767564022376
1.31,-477.148118255709
1.32,-486.537929479583
1.33,-493.292624916802
1.34,-496.878802754952
1.35,-497.000619764161
1.36,-493.680868331493
1.37,-487.256803584619
1.38,-478.292948844709
1.39,-467.453261446228
1.4,-455.383941956134
1.41,-442.637581670961
1.42,-429.642293039018
1.43,-416.703363237442
1.44,-404.021843963236
1.45,-391.718341377899
1.46,-379.855435185019
1.47,-368.456066349537
1.48,-357.517447569359
1.49,-347.021045005145
1.5,-336.939470704002
1.51,-327.241098080211
1.52,-317.8930586601
1.53,-308.863125721887
1.54,-300.120843836226
1.55,-291.638157576311
1.56,-283.389712626518
1.57,-275.352946400241
1.58,-267.508046288379
1.59,-259.837828803332
1.6,-252.327569840543
1.61,-244.964813839517
1.62,-237.739171315274
1.63,-230.642116173529
1.64,-223.666787613823
1.65,-216.80780037042
1.66,-210.061065035674
1.67,-203.423619612776
1.68,-196.893472743988
1.69,-190.469458684556
1.7,-184.151103947361
1.71,-177.938505286838
1.72,-171.832218712931
1.73,-165.833159068084
1.74,-159.942509733054
1.75,-154.1616419495
1.76,-148.49204325271
1.77,-142.93525448068
1.78,-137.492814815191
1.79,-132.166214309216
1.8,-126.956853346109
1.81,-121.86600848539
1.82,-116.894804151525
1.83,-112.044189638649
1.84,-107.314920916279
1.85,-102.707546743756
1.86,-98.2223986207681
1.87,-93.8595841282995
1.88,-89.6189832412272
1.89,-85.5002472209299
1.9,-81.502799726106
1.91,-77.6258398084984
1.92,-73.8683464898983
1.93,-70.2290846439052
1.94,-66.7066117210964
1.95,-63.299286151382
1.96,-60.0052753876572
1.97,-56.8225642494369
1.98,-53.7489647203784
1.99,-50.7821251948148
2,-47.9195398369716
2.01,-45.1585579340948
2.02,-42.4963931456863
2.03,-39.9301325696157
2.04,-37.4567455531504
2.05,-35.0730922061177
2.06,-32.7759315911233
2.07,-30.5619295735676
2.08,-28.4276662996633
2.09,-26.369643292613
2.1,-24.384290163161
2.11,-22.4679709430007
2.12,-20.6169900427545
2.13,-18.827597840585
2.14,-17.0959959131671
2.15,-15.4183419286356
2.16,-13.7907542186166
2.17,-12.2093160467538
2.18,-10.6700795930676
2.19,-9.16906967715262
2.2,-7.70228724307453
2.21,-6.26571262962422
2.22,-4.85530864665097
2.23,-3.46702348188341
2.24,-2.0967934625964
2.25,-0.740545695166519
2.26,0.605799394025079
2.27,1.94632559354186
2.28,3.28511849471498
2.29,4.62626310765551
2.29999999999999,5.97384148480826
2.30999999999999,7.33193032722206
2.31999999999999,8.70459855298478
2.32999999999999,10.0959048033412
2.33999999999999,11.5098948653227
2.34999999999999,12.9505989873539
2.35999999999999,14.4220290670861
2.36999999999999,15.9281756876512
2.37999999999999,17.4730049818764
2.38999999999999,19.0604553015588
2.39999999999999,20.6944336718318
2.40999999999999,22.3788120092958
2.41999999999999,24.1174230843419
2.42999999999999,25.9140562093818
2.43999999999999,27.7724526348462
2.44999999999999,29.696300638217
2.45999999999999,31.6892302919868
2.46999999999999,33.7548078998077
2.47999999999999,35.8965300926875
2.48999999999999,38.1178175814865
2.49999999999999,40.4220085653981
2.50999999999999,42.8123518011949
2.51999999999999,45.2919993455272
2.52999999999999,47.8639989855468
2.53999999999999,50.5312863853835
2.54999999999999,53.2966769807235
2.55999999999999,56.1628576649268
2.56999999999999,59.1323783221882
2.57999999999999,62.2076432720206
2.58999999999999,65.3909027068896
2.59999999999999,68.6842442149023
2.60999999999999,72.0895845004206
2.61999999999999,75.6086614278398
2.62999999999999,79.2430265373861
2.63999999999999,82.9940381985702
2.64999999999999,86.8628555909672
2.65999999999999,90.8504337231031
2.66999999999999,94.9575197270049
2.67999999999999,99.1846506875296
2.68999999999999,103.532153295779
2.69999999999999,108.00014563853
2.70999999999999,112.588541465708
2.71999999999999,117.29705730071
2.72999999999999,122.125222789213
2.73999999999999,127.072394700071
2.74999999999999,132.137775022379
2.75999999999999,137.320433616964
2.76999999999998,142.619335902994
2.77999999999998,148.033376073803
2.78999999999998,153.561415706158
2.79999999999998,159.202333612986
2.80999999999998,164.955069262199
2.81999999999998,170.81869328223
2.82999999999998,176.792471515506
2.83999999999998,182.875942232548
2.84999999999998,189.069002580859
2.85999999999998,195.37200432937
2.86999999999998,201.785859403164
2.87999999999998,208.312155784918
2.88999999999998,214.953283887856
2.89999999999998,221.71257363659
2.90999999999998,228.594442132287
2.91999999999998,235.604551545392
2.92999999999998,242.749976375034
2.93999999999998,250.039378463253
2.94999999999998,257.4831870428
2.95999999999998,265.093779334123
2.96999999999998,272.885654608758
2.97999999999998,280.875590652593
2.98999999999998,289.082765638246
2.99999999999998,297.528819542661
3.00999999999998,306.237816111901
3.01999999999998,315.236047022494
3.02999999999998,324.551591657398
3.03999999999998,334.213505236556
3.04999999999998,344.250450500225
3.05999999999998,354.688508765114
3.06999999999998,365.547801346399
3.07999999999998,376.837435896047
3.08999999999998,388.548131486684
3.09999999999998,400.641840795852
3.10999999999998,413.037724796273
3.11999999999998,425.594330634405
3.12999999999998,438.08903513604
3.13999999999998,450.198214328917
3.14999999999998,461.485339039744
3.15999999999998,471.408394774622
3.16999999999998,479.359699731528
3.17999999999998,484.745314015088
3.18999999999998,487.094317270804
3.19999999999998,486.165565400377
3.20999999999998,482.007924027599
3.21999999999998,474.945127861813
3.22999999999998,465.492690336485
3.23999999999997,454.244973640528
3.24999999999997,441.774678475538
3.25999999999997,428.568742330187
3.26999999999997,415.002621698322
3.27999999999997,401.342195668366
3.28999999999997,387.76017636463
3.29999999999997,374.357108573142
3.30999999999997,361.181320994346
3.31999999999997,348.245463511801
3.32999999999997,335.539168027341
3.33999999999997,323.038258984082
3.34999999999997,310.711201688322
3.35999999999997,298.523491300207
3.36999999999997,286.44055501228
3.37999999999997,274.429610988652
3.38999999999997,262.460806126561
3.39999999999997,250.507860096518
3.40999999999997,238.548372822867
3.41999999999997,226.563903356045
3.42999999999997,214.539890351419
3.43999999999997,202.465466966869
3.44999999999997,190.333199680488
3.45999999999997,178.138775903982
3.46999999999997,165.880655411996
3.47999999999997,153.559697766662
3.48999999999997,141.178774327134
3.49999999999997,128.742372256037
3.50999999999997,116.256196699986
3.51999999999997,103.726776750278
3.52999999999997,91.1610805522151
3.53999999999997,78.5661446535892
3.54999999999997,65.948722846922
3.55999999999997,53.3149598182285
3.56999999999997,40.6700954237889
3.57999999999997,28.0182060723957
3.58999999999997,15.3619909128617
3.59999999999997,2.70261234763335
3.60999999999997,-9.96039682974705
3.61999999999997,-22.6291433024468
3.62999999999997,-35.3072778922754
3.63999999999997,-47.9997645576623
3.64999999999997,-60.7124719071206
3.65999999999997,-73.4515300445119
3.66999999999997,-86.2223754136102
3.67999999999997,-99.0283808569041
3.68999999999997,-111.868937853799
3.69999999999997,-124.736825583316
3.70999999999996,-137.614674329224
3.71999999999996,-150.470319594439
3.72999999999996,-163.250916552359
3.73999999999996,-175.875746541612
3.74999999999996,-188.228086981237
3.75999999999996,-200.146976939778
3.76999999999996,-211.420668572989
3.77999999999996,-221.784675967356
3.78999999999996,-230.928358059699
3.79999999999996,-238.514069638636
3.80999999999996,-244.210962709948
3.81999999999996,-247.740802518281
3.82999999999996,-248.92663878979
3.83999999999996,-247.730205111728
3.84999999999996,-244.264737439003
3.85999999999996,-238.777881624962
3.86999999999996,-231.61062403466
3.87999999999996,-223.146084574206
3.88999999999996,-213.762609756645
3.89999999999996,-203.800288809654
3.90999999999996,-193.543171523114
3.91999999999996,-183.214599923578
3.92999999999996,-172.981156988733
3.93999999999996,-162.960984971632
3.94999999999996,-153.233414360986
3.95999999999996,-143.848104068973
3.96999999999996,-134.832875773546
3.97999999999996,-126.199988789464
3.98999999999996,-117.950969386655
3.99999999999996,-110.080198594541
4.00999999999996,-102.577514907681
4.01999999999996,-95.4300607962195
4.02999999999996,-88.6235657640481
4.03999999999996,-82.1432178510021
4.04999999999996,-75.974239278481
4.05999999999996,-70.1022524473103
4.06999999999996,-64.5134989185307
4.07999999999996,-59.1949575318171
4.08999999999996,-54.134393452655
4.09999999999996,-49.3203618170996
4.10999999999996,-44.7421818782524
4.11999999999996,-40.389893290583
4.12999999999996,-36.2542022103865
4.13999999999996,-32.3264227103027
4.14999999999996,-28.5984170684448
4.15999999999996,-25.0625373261074
4.16999999999996,-21.7115696267037
4.17999999999996,-18.5386822106261
4.18999999999996,-15.5373775663088
4.19999999999995,-12.701448900709
4.20999999999995,-10.0249409393468
4.21999999999995,-7.50211490749958
4.22999999999995,-5.12741748405069
4.23999999999995,-2.89545345925067
4.24999999999995,-0.800961808071306
4.25999999999995,1.16120511952609
4.26999999999995,2.99609958996831
4.27999999999995,4.70869394495686
4.28999999999995,6.30389400637973
4.29999999999995,7.78654966550658
4.30999999999995,9.16146472949789
4.31999999999995,10.4334053113994
4.32999999999995,11.6071057762402
4.33999999999995,12.6872742988205
4.34999999999995,13.6785973696658
4.35999999999995,14.5857434233455
4.36999999999995,15.4133657562688
4.37999999999995,16.1661048659836
4.38999999999995,16.8485903280404
4.39999999999995,17.4654422977419
4.40999999999995,18.0212727078442
4.41999999999995,18.5206862347527
4.42999999999995,18.9682811041379
4.43999999999995,19.36864978799
4.44999999999995,19.726379635816
4.45999999999995,20.0460534741414
4.46999999999995,20.3322502132301
4.47999999999995,20.589545490806
4.48999999999995,20.8225123769198
4.49999999999995,21.0357221569023
4.50999999999995,21.2337452121578
4.51999999999995,21.4211520164336
4.52999999999995,21.6025142632178
4.53999999999995,21.7824061364271
4.54999999999995,21.9654057374382
4.55999999999995,22.1560966836067
4.56999999999995,22.3590698938382
4.57999999999995,22.5789255779342
4.58999999999995,22.8202754458288
4.59999999999995,23.0877451598534
4.60999999999995,23.3859770519215
4.61999999999995,23.7196331366328
4.62999999999995,24.0933984467594
4.63999999999995,24.5119847327899
4.64999999999995,24.9801345614909
4.65999999999995,25.5026258665429
4.66999999999994,26.0842769985664
4.67999999999994,26.7299523371747
4.68999999999994,27.4445685269838
4.69999999999994,28.2331014134693
4.70999999999994,29.1005937534594
4.71999999999994,30.0521637885699
4.72999999999994,31.0930147693722
4.73999999999994,32.2284455258258
4.74999999999994,33.4638621812334
4.75999999999994,34.8047911050087
4.76999999999994,36.256893194583
4.77999999999994,37.8259795686614
4.78999999999994,39.5180287271123
4.79999999999994,41.3392052112659
4.80999999999994,43.2958797389973
4.81999999999994,45.3946507286038
4.82999999999994,47.6423670167039
4.83999999999994,50.0461514390191
4.84999999999994,52.6134247395665
4.85999999999994,55.351928946926
4.86999999999994,58.2697517424477
4.87999999999994,61.3753362524184
4.88999999999994,64.6775043039542
4.89999999999994,68.1854550711266
4.90999999999994,71.9087549162857
4.91999999999994,75.8573076618924
4.92999999999994,80.0412957597384
4.93999999999994,84.4710810251708
4.94999999999994,89.15704947185
4.95999999999994,94.1093790233781
4.96999999999994,99.3377027300314
4.97999999999994,104.850631110381
4.98999999999994,110.655087357491
4.99999999999994,116.755396815556
5.00999999999994,123.152059492689
5.01999999999994,129.84012251616
5.02999999999994,136.80706291949
5.03999999999994,144.030096982577
5.04999999999994,151.472862507981
5.05999999999994,159.081492762707
5.06999999999994,166.780233091195
5.07999999999994,174.467013227594
5.08999999999994,182.009614522056
5.09999999999994,189.243636589359
5.10999999999994,195.973676672069
5.11999999999994,201.979377813503
5.12999999999994,207.02757454443
5.13999999999993,210.89060374248
5.14999999999993,213.368927066602
5.15999999999993,214.31409371965
5.16999999999993,213.646789345022
5.17999999999993,211.365255162416
5.18999999999993,207.541878974879
5.19999999999993,202.309240691052
5.20999999999993,195.839712064118
5.21999999999993,188.323701050199
5.22999999999993,179.950757485479
5.23999999999993,170.895872018973
5.24999999999993,161.311416977515
5.25999999999993,151.323910011204
5.26999999999993,141.034242144001
5.27999999999993,130.520009886523
5.28999999999993,119.838862692093
5.29999999999993,109.032119152558
5.30999999999993,98.1282070826172
5.31999999999993,87.145705035685
5.32999999999993,76.0959069696445
5.33999999999993,64.984914819412
5.34999999999993,53.8153049717609
5.35999999999993,42.587430472163
5.36999999999993,31.3004195224735
5.37999999999993,19.9529323523883
5.38999999999993,8.5437170318492
5.39999999999993,-2.92799072407091
5.40999999999993,-14.4621953567058
5.41999999999993,-26.0579724462225
5.42999999999993,-37.7133844903589
5.43999999999993,-49.4254674543438
5.44999999999993,-61.1902774065213
5.45999999999993,-73.0029889426497
5.46999999999993,-84.858038863676
5.47999999999993,-96.7493097089935
5.48999999999993,-108.670348508626
5.49999999999993,-120.614616511242
5.50999999999993,-132.575765802178
5.51999999999993,-144.547938662327
5.52999999999993,-156.526085278098
5.53999999999993,-168.506294982672
5.54999999999993,-180.486135552931
5.55999999999993,-192.464994130464
5.56999999999993,-204.44441192838
5.57999999999993,-216.428402814274
5.58999999999993,-228.42374277536
5.59999999999993,-240.440212672184
5.60999999999992,-252.490769826063
5.61999999999992,-264.591613807552
5.62999999999992,-276.762096802374
5.63999999999992,-289.02440707109
5.64999999999992,-301.402922600044
5.65999999999992,-313.923087730842
5.66999999999992,-326.609604793714
5.67999999999992,-339.483650874246
5.68999999999992,-352.558745142311
5.69999999999992,-365.834752575108
5.70999999999992,-379.289490567945
5.71999999999992,-392.86737635039
5.72999999999992,-406.464871365926
5.73999999999992,-419.913246060885
5.74999999999992,-432.96079563355
5.75999999999992,-445.259285489375
5.76999999999992,-456.362763084436
5.77999999999992,-465.749356456233
5.78999999999992,-472.874775188863
5.79999999999992,-477.256664688056
5.80999999999992,-478.571733407071
5.81999999999992,-476.732322156717
5.82999999999992,-471.909703177955
5.83999999999992,-464.493246732291
5.84999999999992,-455.00423483467
5.85999999999992,-443.999447186241
5.86999999999992,-431.994506063966
5.87999999999992,-419.419744063368
5.88999999999992,-406.605878355791
5.89999999999992,-393.789561112308
5.90999999999992,-381.128672382431
5.91999999999992,-368.720193173219
5.92999999999992,-356.616729264545
5.93999999999992,-344.840117285826
5.94999999999992,-333.391850723376
5.95999999999992,-322.260711738352
5.96999999999992,-311.428160444726
5.97999999999992,-300.872033343215
5.98999999999992,-290.569012058444
5.99999999999992,-280.496220369573
6.00999999999992,-270.632214535841
6.01999999999992,-260.957557244027
6.02999999999992,-251.455110131066
6.03999999999992,-242.110136637251
6.04999999999992,-232.910282443383
6.05999999999992,-223.845475168242
6.06999999999992,-214.907775157115
6.07999999999991,-206.091197074685
6.08999999999991,-197.391516883868
6.09999999999991,-188.806073379772
6.10999999999991,-180.33357092218
6.11999999999991,-171.973887694793
6.12999999999991,-163.72789240432
6.13999999999991,-155.59727144179
6.14999999999991,-147.584367675099
6.15999999999991,-139.692031706831
6.16999999999991,-131.923485924143
6.17999999999991,-124.282201505397
6.18999999999991,-116.771788263348
6.19999999999991,-109.395897085676
6.20999999999991,-102.158134583336
6.21999999999991,-95.0619894591058
6.22999999999991,-88.1107700307721
6.23999999999991,-81.3075522714086
6.24999999999991,-74.6551376909074
6.25999999999991,-68.1560203398194
6.26999999999991,-61.8123622023771
6.27999999999991,-55.6259762292742
6.28999999999991,-49.5983162641983
6.29999999999991,-43.730473123592
6.30999999999991,-38.0231761056702
6.31999999999991,-32.476799227349
6.32999999999991,-27.0913715149218
6.33999999999991,-21.8665907078529
6.34999999999991,-16.8018397706289
6.35999999999991,-11.8962056471819
6.36999999999991,-7.14849973489586
6.37999999999991,-2.55727959743672
6.38999999999991,1.8791285215935
6.39999999999991,6.16260677643355
6.40999999999991,10.2952227393174
6.41999999999991,14.2792067614817
6.42999999999991,18.1169294465358
6.43999999999991,21.8108804357686
6.44999999999991,25.3636481147269
6.45999999999991,28.7778998319856
6.46999999999991,32.0563637649665
6.47999999999991,35.2018120958368
6.48999999999991,38.217045564622
6.49999999999991,41.1048794500055
6.50999999999991,43.8681310276862
6.51999999999991,46.5096085432839
6.52999999999991,49.032101688086
6.53999999999991,51.4383735412105
